# step time[s] time[yr] dt[s] log10(max|v|[m/s]) mean_slip[m] mean_mu max_sigma[Pa] min_sigma[Pa]
        0       0.00000000e+00      0.0000000000  1.00000000e+00   -1.5228787  0.00000000e+00   0.592608  2.50000000e+07  2.50000000e+07
        1       1.00000000e+00      0.0000000317  1.23630550e+00   -1.3919476  1.08863879e-03   0.592563  2.50000000e+07  2.50000000e+07
        2       2.23630550e+00      0.0000000709  1.61330723e+00   -1.2894724  2.52677288e-03   0.592491  2.50000000e+07  2.50000000e+07
        3       3.84961272e+00      0.0000001220  1.90930651e+00   -1.1951414  4.65865469e-03   0.592376  2.50000000e+07  2.50000000e+07
        4       5.75891923e+00      0.0000001825  1.81315988e+00   -1.0963963  7.68764058e-03   0.592207  2.50000000e+07  2.50000000e+07
        5       6.94640722e+00      0.0000002201  1.33538001e+00   -1.0366792  9.92770155e-03   0.592079  2.50000000e+07  2.50000000e+07
        6       8.13270896e+00      0.0000002577  1.25477149e+00   -0.9721434  1.25366027e-02   0.591915  2.50000000e+07  2.50000000e+07
        7       8.94816423e+00      0.0000002836  9.53411677e-01   -0.9217122  1.46383492e-02   0.591773  2.50000000e+07  2.50000000e+07
        8       9.90157590e+00      0.0000003138  9.19806872e-01   -0.8546176  1.75198525e-02   0.591572  2.50000000e+07  2.50000000e+07
        9       1.08213828e+01      0.0000003429  9.67303461e-01   -0.7831649  2.08498781e-02   0.591330  2.50000000e+07  2.50000000e+07
       10       1.16876322e+01      0.0000003704  8.78138185e-01   -0.7107603  2.46236132e-02   0.591045  2.50000000e+07  2.50000000e+07
       11       1.22799556e+01      0.0000003891  6.75710733e-01   -0.6582228  2.76660646e-02   0.590802  2.50000000e+07  2.50000000e+07
       12       1.29556663e+01      0.0000004105  6.37901691e-01   -0.5945924  3.17316339e-02   0.590464  2.50000000e+07  2.50000000e+07
       13       1.35935680e+01      0.0000004308  7.01787726e-01   -0.5306744  3.62892140e-02   0.590079  2.50000000e+07  2.50000000e+07
       14       1.41999317e+01      0.0000004500  5.99041903e-01   -0.4665547  4.14260792e-02   0.589628  2.50000000e+07  2.50000000e+07
       15       1.47286968e+01      0.0000004667  5.27881430e-01   -0.4079827  4.67172059e-02   0.589143  2.50000000e+07  2.50000000e+07
       16       1.52565783e+01      0.0000004835  5.11062345e-01   -0.3469633  5.29453407e-02   0.588556  2.50000000e+07  2.50000000e+07
       17       1.57676406e+01      0.0000004996  5.75051443e-01   -0.2855187  6.00764614e-02   0.587874  2.50000000e+07  2.50000000e+07
       18       1.62434927e+01      0.0000005147  4.81722860e-01   -0.2267487  6.79134662e-02   0.587097  2.50000000e+07  2.50000000e+07
       19       1.67252156e+01      0.0000005300  4.45139839e-01   -0.1686999  7.73010280e-02   0.586141  2.50000000e+07  2.50000000e+07
       20       1.71703554e+01      0.0000005441  4.29289024e-01   -0.1213529  8.75446987e-02   0.585123  2.50000000e+07  2.50000000e+07
       21       1.74305724e+01      0.0000005523  4.02457333e-01   -0.1150393  9.42785749e-02   0.584506  2.50000000e+07  2.50000000e+07
       22       1.76318011e+01      0.0000005587  2.65926337e-01   -0.0953205  9.98427663e-02   0.584041  2.50000000e+07  2.50000000e+07
       23       1.78977274e+01      0.0000005671  2.47332490e-01   -0.0823480  1.07628308e-01   0.583447  2.50000000e+07  2.50000000e+07
       24       1.81450599e+01      0.0000005750  2.72273054e-01   -0.0925002  1.15259083e-01   0.582931  2.50000000e+07  2.50000000e+07
       25       1.84173330e+01      0.0000005836  2.80273607e-01   -0.0875391  1.23996083e-01   0.582427  2.50000000e+07  2.50000000e+07
       26       1.86463100e+01      0.0000005909  2.43747332e-01   -0.0847680  1.31550776e-01   0.582028  2.50000000e+07  2.50000000e+07
       27       1.88900573e+01      0.0000005986  2.78625280e-01   -0.1000158  1.39774306e-01   0.581611  2.50000000e+07  2.50000000e+07
       28       1.91686826e+01      0.0000006074  2.76949835e-01   -0.0876975  1.49378866e-01   0.581146  2.50000000e+07  2.50000000e+07
       29       1.94456324e+01      0.0000006162  2.65431605e-01   -0.0806102  1.59133952e-01   0.580666  2.50000000e+07  2.50000000e+07
       30       1.97110640e+01      0.0000006246  3.10394247e-01   -0.0827268  1.68707441e-01   0.580177  2.50000000e+07  2.50000000e+07
       31       2.00214583e+01      0.0000006344  3.18263438e-01   -0.0819121  1.80206492e-01   0.579593  2.50000000e+07  2.50000000e+07
       32       2.03397217e+01      0.0000006445  3.07740341e-01   -0.0688450  1.92318397e-01   0.579005  2.50000000e+07  2.50000000e+07
       33       2.06085039e+01      0.0000006530  2.77999898e-01   -0.0659249  2.02771629e-01   0.578522  2.50000000e+07  2.50000000e+07
       34       2.08865038e+01      0.0000006619  3.16076348e-01   -0.0726199  2.13761135e-01   0.578049  2.50000000e+07  2.50000000e+07
       35       2.12025802e+01      0.0000006719  3.12511083e-01   -0.0548508  2.26412928e-01   0.577545  2.50000000e+07  2.50000000e+07
       36       2.14328832e+01      0.0000006792  2.59768879e-01   -0.0487603  2.35707482e-01   0.577189  2.50000000e+07  2.50000000e+07
       37       2.16926521e+01      0.0000006874  2.80156720e-01   -0.0505141  2.46255184e-01   0.576795  2.50000000e+07  2.50000000e+07
       38       2.19728088e+01      0.0000006963  3.07912586e-01   -0.0476475  2.57688794e-01   0.576387  2.50000000e+07  2.50000000e+07
       39       2.22378114e+01      0.0000007047  2.91879408e-01   -0.0369913  2.68525235e-01   0.576029  2.50000000e+07  2.50000000e+07
       40       2.24725366e+01      0.0000007121  2.49801884e-01   -0.0352333  2.78110955e-01   0.575731  2.50000000e+07  2.50000000e+07
       41       2.27223384e+01      0.0000007200  2.87082359e-01   -0.0462241  2.88285951e-01   0.575419  2.50000000e+07  2.50000000e+07
       42       2.30094208e+01      0.0000007291  2.82665585e-01   -0.0398115  2.99934012e-01   0.575078  2.50000000e+07  2.50000000e+07
       43       2.32269354e+01      0.0000007360  2.39503658e-01   -0.0376913  3.08705955e-01   0.574841  2.50000000e+07  2.50000000e+07
       44       2.34664391e+01      0.0000007436  2.59062643e-01   -0.0443605  3.18287210e-01   0.574601  2.50000000e+07  2.50000000e+07
       45       2.37255017e+01      0.0000007518  2.88033964e-01   -0.0708468  3.28530507e-01   0.574371  2.50000000e+07  2.50000000e+07
       46       2.40135357e+01      0.0000007609  3.02000675e-01   -0.0746179  3.39717865e-01   0.574167  2.50000000e+07  2.50000000e+07
       47       2.42526195e+01      0.0000007685  2.56412666e-01   -0.0826651  3.48795440e-01   0.574033  2.50000000e+07  2.50000000e+07
       48       2.45090321e+01      0.0000007766  3.02941488e-01   -0.1021315  3.58289268e-01   0.573913  2.50000000e+07  2.50000000e+07
       49       2.48119736e+01      0.0000007862  3.23952899e-01   -0.1473568  3.69166062e-01   0.573780  2.50000000e+07  2.50000000e+07
       50       2.51359265e+01      0.0000007965  3.58380362e-01   -0.1657649  3.80382918e-01   0.573674  2.50000000e+07  2.50000000e+07
       51       2.54943069e+01      0.0000008079  3.29396515e-01   -0.1898556  3.92238801e-01   0.573605  2.50000000e+07  2.50000000e+07
       52       2.58237034e+01      0.0000008183  4.09773397e-01   -0.2229523  4.02583666e-01   0.573576  2.50000000e+07  2.50000000e+07
       53       2.62334768e+01      0.0000008313  4.39221904e-01   -0.2598456  4.14682875e-01   0.573578  2.50000000e+07  2.50000000e+07
       54       2.66726987e+01      0.0000008452  4.30319307e-01   -0.2798194  4.26663373e-01   0.573630  2.50000000e+07  2.50000000e+07
       55       2.71030180e+01      0.0000008588  4.22304968e-01   -0.3115518  4.37392955e-01   0.573706  2.50000000e+07  2.50000000e+07
       56       2.73219850e+01      0.0000008658  3.36952219e-01   -0.3313038  4.42489416e-01   0.573737  2.50000000e+07  2.50000000e+07
       57       2.76589373e+01      0.0000008765  3.95767194e-01   -0.3678338  4.49897393e-01   0.573776  2.50000000e+07  2.50000000e+07
       58       2.80547045e+01      0.0000008890  4.80317289e-01   -0.4034881  4.57971858e-01   0.573826  2.50000000e+07  2.50000000e+07
       59       2.85350217e+01      0.0000009042  5.11366005e-01   -0.4361622  4.66888043e-01   0.573910  2.50000000e+07  2.50000000e+07
       60       2.90463878e+01      0.0000009204  5.42419421e-01   -0.4839170  4.75333797e-01   0.574023  2.50000000e+07  2.50000000e+07
       61       2.95888072e+01      0.0000009376  5.84043563e-01   -0.5441175  4.83163689e-01   0.574153  2.50000000e+07  2.50000000e+07
       62       3.01728507e+01      0.0000009561  6.67615684e-01   -0.6164093  4.90405114e-01   0.574289  2.50000000e+07  2.50000000e+07
       63       3.08404664e+01      0.0000009773  7.67166698e-01   -0.6993709  4.97360684e-01   0.574427  2.50000000e+07  2.50000000e+07
       64       3.16076331e+01      0.0000010016  8.68012682e-01   -0.7853249  5.03896912e-01   0.574555  2.50000000e+07  2.50000000e+07
       65       3.24756458e+01      0.0000010291  8.98018865e-01   -0.9001843  5.09810812e-01   0.574652  2.50000000e+07  2.50000000e+07
       66       3.30444784e+01      0.0000010471  6.98568900e-01   -0.9146275  5.13044602e-01   0.574687  2.50000000e+07  2.50000000e+07
       67       3.37430473e+01      0.0000010693  7.76710888e-01   -0.9203121  5.16497687e-01   0.574709  2.50000000e+07  2.50000000e+07
       68       3.45197582e+01      0.0000010939  8.95846581e-01   -0.9290871  5.19825950e-01   0.574711  2.50000000e+07  2.50000000e+07
       69       3.54156048e+01      0.0000011223  1.16494308e+00   -0.9406998  5.23171008e-01   0.574696  2.50000000e+07  2.50000000e+07
       70       3.65805478e+01      0.0000011592  1.53682324e+00   -0.9562655  5.26954818e-01   0.574659  2.50000000e+07  2.50000000e+07
       71       3.81173711e+01      0.0000012079  2.03861887e+00   -0.9754551  5.31280975e-01   0.574592  2.50000000e+07  2.50000000e+07
       72       4.01559900e+01      0.0000012725  2.49492952e+00   -0.9965839  5.36286783e-01   0.574487  2.50000000e+07  2.50000000e+07
       73       4.26509195e+01      0.0000013515  2.62062102e+00   -1.0149478  5.41772073e-01   0.574344  2.50000000e+07  2.50000000e+07
       74       4.52715405e+01      0.0000014346  2.51900676e+00   -1.0261261  5.47175915e-01   0.574181  2.50000000e+07  2.50000000e+07
       75       4.77905473e+01      0.0000015144  2.62613047e+00   -1.0315997  5.52282387e-01   0.574013  2.50000000e+07  2.50000000e+07
       76       5.04166777e+01      0.0000015976  2.37472124e+00   -1.0395859  5.57683721e-01   0.573827  2.50000000e+07  2.50000000e+07
       77       5.19484184e+01      0.0000016461  1.63614200e+00   -1.0530480  5.60894681e-01   0.573717  2.50000000e+07  2.50000000e+07
       78       5.35845604e+01      0.0000016980  1.90449334e+00   -1.0682038  5.64345043e-01   0.573604  2.50000000e+07  2.50000000e+07
       79       5.54890537e+01      0.0000017583  2.08980337e+00   -1.0937072  5.68308676e-01   0.573484  2.50000000e+07  2.50000000e+07
       80       5.75788571e+01      0.0000018246  2.09239688e+00   -1.1263856  5.72473788e-01   0.573369  2.50000000e+07  2.50000000e+07
       81       5.96712540e+01      0.0000018909  2.09598544e+00   -1.1667187  5.76344257e-01   0.573272  2.50000000e+07  2.50000000e+07
       82       6.17672394e+01      0.0000019573  2.40759219e+00   -1.2033940  5.79854668e-01   0.573190  2.50000000e+07  2.50000000e+07
       83       6.41748316e+01      0.0000020336  3.16168328e+00   -1.2609617  5.83404842e-01   0.573112  2.50000000e+07  2.50000000e+07
       84       6.73365149e+01      0.0000021338  3.78808355e+00   -1.3283144  5.87320604e-01   0.573029  2.50000000e+07  2.50000000e+07
       85       7.11245984e+01      0.0000022538  4.92279376e+00   -1.4086746  5.91074744e-01   0.572948  2.50000000e+07  2.50000000e+07
       86       7.60473922e+01      0.0000024098  5.13235031e+00   -1.5221315  5.94829340e-01   0.572863  2.50000000e+07  2.50000000e+07
       87       8.11797425e+01      0.0000025724  6.79961018e+00   -1.6230215  5.97828010e-01   0.572790  2.50000000e+07  2.50000000e+07
       88       8.79793527e+01      0.0000027879  9.46542709e+00   -1.7323142  6.00880236e-01   0.572710  2.50000000e+07  2.50000000e+07
       89       9.74447798e+01      0.0000030878  1.09448890e+01   -1.8668889  6.04045259e-01   0.572622  2.50000000e+07  2.50000000e+07
       90       1.08389669e+02      0.0000034347  1.36400162e+01   -2.0003553  6.06764831e-01   0.572543  2.50000000e+07  2.50000000e+07
       91       1.22029685e+02      0.0000038669  1.56876399e+01   -2.1293143  6.09339045e-01   0.572464  2.50000000e+07  2.50000000e+07
       92       1.37717325e+02      0.0000043640  1.88684982e+01   -2.2391389  6.11640506e-01   0.572392  2.50000000e+07  2.50000000e+07
       93       1.56585823e+02      0.0000049619  2.47401569e+01   -2.3496881  6.13839140e-01   0.572321  2.50000000e+07  2.50000000e+07
       94       1.81325980e+02      0.0000057459  3.25090831e+01   -2.4698323  6.16132923e-01   0.572246  2.50000000e+07  2.50000000e+07
       95       2.13835063e+02      0.0000067760  3.95352252e+01   -2.5973809  6.18511870e-01   0.572167  2.50000000e+07  2.50000000e+07
       96       2.53370288e+02      0.0000080288  4.59641107e+01   -2.7203381  6.20798166e-01   0.572090  2.50000000e+07  2.50000000e+07
       97       2.99334399e+02      0.0000094853  5.32132640e+01   -2.8167170  6.22926491e-01   0.572018  2.50000000e+07  2.50000000e+07
       98       3.52547663e+02      0.0000111716  6.55322275e+01   -2.8991072  6.24928416e-01   0.571950  2.50000000e+07  2.50000000e+07
       99       4.18079890e+02      0.0000132482  8.68184753e+01   -2.9852983  6.26941772e-01   0.571880  2.50000000e+07  2.50000000e+07
      100       4.31211930e+02      0.0000136643  7.36864360e+01   -3.0010780  6.27300148e-01   0.571868  2.50000000e+07  2.50000000e+07
      101       5.04898366e+02      0.0000159993  1.17728787e+02   -3.0824962  6.29099085e-01   0.571806  2.50000000e+07  2.50000000e+07
      102       6.22627153e+02      0.0000197299  1.89692525e+02   -3.1930905  6.31421945e-01   0.571725  2.50000000e+07  2.50000000e+07
      103       7.65824004e+02      0.0000242675  4.64956743e+01   -3.3042539  6.33652662e-01   0.571647  2.50000000e+07  2.50000000e+07
      104       8.12319678e+02      0.0000257409  2.45413436e+02   -3.3360829  6.34278006e-01   0.571625  2.50000000e+07  2.50000000e+07
      105       1.05773311e+03      0.0000335175  3.85373348e+02   -3.4789326  6.37036161e-01   0.571528  2.50000000e+07  2.50000000e+07
      106       1.44310646e+03      0.0000457293  4.89645878e+02   -3.6488336  6.40220515e-01   0.571415  2.50000000e+07  2.50000000e+07
      107       1.93275234e+03      0.0000612452  5.99822505e+02   -3.7789383  6.43189986e-01   0.571308  2.50000000e+07  2.50000000e+07
      108       2.53257484e+03      0.0000802525  8.12660576e+02   -3.8998946  6.45941050e-01   0.571209  2.50000000e+07  2.50000000e+07
      109       3.34523542e+03      0.0001060041  1.11790075e+03   -4.0299599  6.48797349e-01   0.571106  2.50000000e+07  2.50000000e+07
      110       4.46313618e+03      0.0001414283  1.53540481e+03   -4.1624925  6.51802842e-01   0.570996  2.50000000e+07  2.50000000e+07
      111       5.99854098e+03      0.0001900823  2.15540442e+03   -4.3062637  6.54958250e-01   0.570880  2.50000000e+07  2.50000000e+07
      112       8.15394540e+03      0.0002583829  3.12643847e+03   -4.4514144  6.58339340e-01   0.570755  2.50000000e+07  2.50000000e+07
      113       1.12803839e+04      0.0003574538  4.09778665e+03   -4.5825707  6.62058119e-01   0.570616  2.50000000e+07  2.50000000e+07
      114       1.53781705e+04      0.0004873048  5.45633605e+03   -4.7020999  6.65772183e-01   0.570476  2.50000000e+07  2.50000000e+07
      115       2.08345066e+04      0.0006602057  7.89565193e+03   -4.8117052  6.69587702e-01   0.570332  2.50000000e+07  2.50000000e+07
      116       2.87301585e+04      0.0009104038  1.03244716e+04   -4.9256463  6.73830087e-01   0.570170  2.50000000e+07  2.50000000e+07
      117       3.90546301e+04      0.0012375665  1.50615793e+04   -5.0452700  6.78084998e-01   0.570007  2.50000000e+07  2.50000000e+07
      118       5.41162093e+04      0.0017148392  1.85770314e+04   -5.2002322  6.82822791e-01   0.569825  2.50000000e+07  2.50000000e+07
      119       7.26932408e+04      0.0023035098  2.49646009e+04   -5.3309919  6.87312702e-01   0.569651  2.50000000e+07  2.50000000e+07
      120       9.76578417e+04      0.0030945903  3.05402219e+04   -5.4463616  6.92024406e-01   0.569467  2.50000000e+07  2.50000000e+07
      121       1.28198064e+05      0.0040623515  4.24875948e+04   -5.5483876  6.96598566e-01   0.569288  2.50000000e+07  2.50000000e+07
      122       1.70685658e+05      0.0054087021  5.86799755e+04   -5.6538336  7.01690973e-01   0.569086  2.50000000e+07  2.50000000e+07
      123       2.29365634e+05      0.0072681584  8.36169985e+04   -5.7756858  7.07290352e-01   0.568863  2.50000000e+07  2.50000000e+07
      124       3.12982632e+05      0.0099178211  1.00470659e+05   -5.9240737  7.13608419e-01   0.568610  2.50000000e+07  2.50000000e+07
      125       4.13453291e+05      0.0131015442  1.21402329e+05   -6.0202438  7.19709354e-01   0.568363  2.50000000e+07  2.50000000e+07
      126       5.34855621e+05      0.0169485519  1.59414613e+05   -6.1138074  7.25794007e-01   0.568116  2.50000000e+07  2.50000000e+07
      127       6.94270233e+05      0.0220000961  2.27513832e+05   -6.2158963  7.32446551e-01   0.567844  2.50000000e+07  2.50000000e+07
      128       9.21784065e+05      0.0292095744  3.27409638e+05   -6.3513092  7.40270494e-01   0.567522  2.50000000e+07  2.50000000e+07
      129       1.24919370e+06      0.0395845598  3.37451354e+05   -6.4604038  7.49408201e-01   0.567142  2.50000000e+07  2.50000000e+07
      130       1.58664506e+06      0.0502777479  4.37749193e+05   -6.5438786  7.57229329e-01   0.566814  2.50000000e+07  2.50000000e+07
      131       2.02439425e+06      0.0641491828  6.16289427e+05   -6.6460502  7.65886869e-01   0.566448  2.50000000e+07  2.50000000e+07
      132       2.64068368e+06      0.0836782163  7.84983206e+05   -6.7739792  7.76251094e-01   0.566006  2.50000000e+07  2.50000000e+07
      133       3.42566688e+06      0.1085528330  8.47342055e+05   -6.8511512  7.87447501e-01   0.565524  2.50000000e+07  2.50000000e+07
      134       4.27300894e+06      0.1354034825  1.15597523e+06   -6.9402690  7.97875785e-01   0.565070  2.50000000e+07  2.50000000e+07
      135       5.42898417e+06      0.1720341272  1.48159937e+06   -7.0615499  8.10276284e-01   0.564524  2.50000000e+07  2.50000000e+07
      136       6.91058354e+06      0.2189831782  1.64619665e+06   -7.1293453  8.24122529e-01   0.563906  2.50000000e+07  2.50000000e+07
      137       8.55678020e+06      0.2711480023  2.16218539e+06   -7.2205997  8.37680866e-01   0.563292  2.50000000e+07  2.50000000e+07
      138       1.07189656e+07      0.3396635228  2.71515779e+06   -7.3189387  8.53476772e-01   0.562564  2.50000000e+07  2.50000000e+07
      139       1.34341234e+07      0.4257016814  3.05716677e+06   -7.4013085  8.71062269e-01   0.561736  2.50000000e+07  2.50000000e+07
      140       1.64912901e+07      0.5225774503  4.03302338e+06   -7.5031229  8.88741790e-01   0.560883  2.50000000e+07  2.50000000e+07
      141       2.05243135e+07      0.6503762493  4.74723338e+06   -7.6044473  9.09574080e-01   0.559852  2.50000000e+07  2.50000000e+07
      142       2.52715469e+07      0.8008069976  6.14904615e+06   -7.6839847  9.31406650e-01   0.558751  2.50000000e+07  2.50000000e+07
      143       3.14205931e+07      0.9956585120  7.60215704e+06   -7.7750937  9.56476614e-01   0.557478  2.50000000e+07  2.50000000e+07
      144       3.90227501e+07      1.2365563317  9.56195215e+06   -7.8615744  9.83768902e-01   0.556098  2.50000000e+07  2.50000000e+07
